#   istep time (au) <H(t)>-E_gs(0) DE_vac(t) DG_eq(t) DG_neq(t)  Const  Rad. Int  Rad. Ene
       1        0.0000      0.00000000E+00      0.23790800E-03      0.11895400E-03      0.12746726E-03      0.23790800E-03      0.00000000E+00      0.00000000E+00
       2        0.2000     -0.23790800E-03      0.14976627E-04     -0.11146568E-03     -0.95464109E-04     -0.22293137E-03      0.00000000E+00      0.00000000E+00
       4        0.6000     -0.26773221E-03      0.14719651E-04     -0.12650628E-03     -0.95721085E-04     -0.25301256E-03      0.00000000E+00      0.00000000E+00
       6        1.0000     -0.29704468E-03      0.14467084E-04     -0.14128880E-03     -0.95973651E-04     -0.28257759E-03      0.00000000E+00      0.00000000E+00
       8        1.4000     -0.32585419E-03      0.14218851E-04     -0.15581767E-03     -0.96221884E-04     -0.31163534E-03      0.00000000E+00      0.00000000E+00
      10        1.8000     -0.35416938E-03      0.13974878E-04     -0.17009725E-03     -0.96465858E-04     -0.34019450E-03      0.00000000E+00      0.00000000E+00
      12        2.2000     -0.38199873E-03      0.13735091E-04     -0.18413182E-03     -0.96705645E-04     -0.36826363E-03      0.00000000E+00      0.00000000E+00
      14        2.6000     -0.40935056E-03      0.13499418E-04     -0.19792557E-03     -0.96941318E-04     -0.39585114E-03      0.00000000E+00      0.00000000E+00
      16        3.0000     -0.43623308E-03      0.13267788E-04     -0.21148265E-03     -0.97172947E-04     -0.42296529E-03      0.00000000E+00      0.00000000E+00
      18        3.4000     -0.46265434E-03      0.13040134E-04     -0.22480710E-03     -0.97400602E-04     -0.44961420E-03      0.00000000E+00      0.00000000E+00
      20        3.8000     -0.48862224E-03      0.12816385E-04     -0.23790293E-03     -0.97624351E-04     -0.47580586E-03      0.00000000E+00      0.00000000E+00
      22        4.2000     -0.51414458E-03      0.12596475E-04     -0.25077405E-03     -0.97844260E-04     -0.50154811E-03      0.00000000E+00      0.00000000E+00
      24        4.6000     -0.53922900E-03      0.12380339E-04     -0.26342433E-03     -0.98060396E-04     -0.52684866E-03      0.00000000E+00      0.00000000E+00
      26        5.0000     -0.56388300E-03      0.12167912E-04     -0.27585755E-03     -0.98272824E-04     -0.55171509E-03      0.00000000E+00      0.00000000E+00
      28        5.4000     -0.58811399E-03      0.11959129E-04     -0.28807743E-03     -0.98481606E-04     -0.57615486E-03      0.00000000E+00      0.00000000E+00
      30        5.8000     -0.61192920E-03      0.11753929E-04     -0.30008764E-03     -0.98686807E-04     -0.60017527E-03      0.00000000E+00      0.00000000E+00
      32        6.2000     -0.63533578E-03      0.11552250E-04     -0.31189177E-03     -0.98888486E-04     -0.62378353E-03      0.00000000E+00      0.00000000E+00
      34        6.6000     -0.65834074E-03      0.11354031E-04     -0.32349336E-03     -0.99086705E-04     -0.64698671E-03      0.00000000E+00      0.00000000E+00
      36        7.0000     -0.68095097E-03      0.11159213E-04     -0.33489588E-03     -0.99281522E-04     -0.66979176E-03      0.00000000E+00      0.00000000E+00
      38        7.4000     -0.70317325E-03      0.10967738E-04     -0.34610276E-03     -0.99472997E-04     -0.69220551E-03      0.00000000E+00      0.00000000E+00
      40        7.8000     -0.72501422E-03      0.10779549E-04     -0.35711734E-03     -0.99661187E-04     -0.71423467E-03      0.00000000E+00      0.00000000E+00
      42        8.2000     -0.74648044E-03      0.10594588E-04     -0.36794293E-03     -0.99846147E-04     -0.73588585E-03      0.00000000E+00      0.00000000E+00
      44        8.6000     -0.76757833E-03      0.10412801E-04     -0.37858276E-03     -0.10002793E-03     -0.75716553E-03      0.00000000E+00      0.00000000E+00
      46        9.0000     -0.78831421E-03      0.10234134E-04     -0.38904004E-03     -0.10020660E-03     -0.77808008E-03      0.00000000E+00      0.00000000E+00
      48        9.4000     -0.80869430E-03      0.10058532E-04     -0.39931788E-03     -0.10038220E-03     -0.79863577E-03      0.00000000E+00      0.00000000E+00
      50        9.8000     -0.82872470E-03      0.98859429E-05     -0.40941938E-03     -0.10055479E-03     -0.81883875E-03      0.00000000E+00      0.00000000E+00
      52       10.2000     -0.84841140E-03      0.97163154E-05     -0.41934754E-03     -0.10072442E-03     -0.83869509E-03      0.00000000E+00      0.00000000E+00
      54       10.6000     -0.86776031E-03      0.95495984E-05     -0.42910536E-03     -0.10089114E-03     -0.85821071E-03      0.00000000E+00      0.00000000E+00
      56       11.0000     -0.88677723E-03      0.93857420E-05     -0.43869574E-03     -0.10105499E-03     -0.87739148E-03      0.00000000E+00      0.00000000E+00
      58       11.4000     -0.90546784E-03      0.92246971E-05     -0.44812157E-03     -0.10121604E-03     -0.89624314E-03      0.00000000E+00      0.00000000E+00
      60       11.8000     -0.92383775E-03      0.90664155E-05     -0.45738567E-03     -0.10137432E-03     -0.91477133E-03      0.00000000E+00      0.00000000E+00
      62       12.2000     -0.94189246E-03      0.89108498E-05     -0.46649081E-03     -0.10152989E-03     -0.93298161E-03      0.00000000E+00      0.00000000E+00
      64       12.6000     -0.95963738E-03      0.87579533E-05     -0.47543971E-03     -0.10168278E-03     -0.95087943E-03      0.00000000E+00      0.00000000E+00
      66       13.0000     -0.97707783E-03      0.86076804E-05     -0.48423507E-03     -0.10183306E-03     -0.96847015E-03      0.00000000E+00      0.00000000E+00
      68       13.4000     -0.99421902E-03      0.84599858E-05     -0.49287952E-03     -0.10198075E-03     -0.98575904E-03      0.00000000E+00      0.00000000E+00
      70       13.8000     -0.10110661E-02      0.83148255E-05     -0.50137564E-03     -0.10212591E-03     -0.10027513E-02      0.00000000E+00      0.00000000E+00
      72       14.2000     -0.10276241E-02      0.81721559E-05     -0.50972598E-03     -0.10226858E-03     -0.10194520E-02      0.00000000E+00      0.00000000E+00
      74       14.6000     -0.10438980E-02      0.80319343E-05     -0.51793303E-03     -0.10240880E-03     -0.10358661E-02      0.00000000E+00      0.00000000E+00
      76       15.0000     -0.10598927E-02      0.78941187E-05     -0.52599927E-03     -0.10254662E-03     -0.10519985E-02      0.00000000E+00      0.00000000E+00
      78       15.4000     -0.10756129E-02      0.77586677E-05     -0.53392711E-03     -0.10268207E-03     -0.10678542E-02      0.00000000E+00      0.00000000E+00
      80       15.8000     -0.10910634E-02      0.76255410E-05     -0.54171891E-03     -0.10281519E-03     -0.10834378E-02      0.00000000E+00      0.00000000E+00
      82       16.2000     -0.11062487E-02      0.74946984E-05     -0.54937702E-03     -0.10294604E-03     -0.10987540E-02      0.00000000E+00      0.00000000E+00
      84       16.6000     -0.11211736E-02      0.73661009E-05     -0.55690373E-03     -0.10307463E-03     -0.11138075E-02      0.00000000E+00      0.00000000E+00
      86       17.0000     -0.11358423E-02      0.72397100E-05     -0.56430130E-03     -0.10320103E-03     -0.11286026E-02      0.00000000E+00      0.00000000E+00
      88       17.4000     -0.11502593E-02      0.71154877E-05     -0.57157193E-03     -0.10332525E-03     -0.11431439E-02      0.00000000E+00      0.00000000E+00
      90       17.8000     -0.11644290E-02      0.69933969E-05     -0.57871780E-03     -0.10344734E-03     -0.11574356E-02      0.00000000E+00      0.00000000E+00
      92       18.2000     -0.11783555E-02      0.68734010E-05     -0.58574107E-03     -0.10356733E-03     -0.11714821E-02      0.00000000E+00      0.00000000E+00
      94       18.6000     -0.11920431E-02      0.67554640E-05     -0.59264383E-03     -0.10368527E-03     -0.11852877E-02      0.00000000E+00      0.00000000E+00
      96       19.0000     -0.12054958E-02      0.66395507E-05     -0.59942815E-03     -0.10380118E-03     -0.11988563E-02      0.00000000E+00      0.00000000E+00
      98       19.4000     -0.12187177E-02      0.65256262E-05     -0.60609605E-03     -0.10391511E-03     -0.12121921E-02      0.00000000E+00      0.00000000E+00
     100       19.8000     -0.12317128E-02      0.64136565E-05     -0.61264955E-03     -0.10402708E-03     -0.12252991E-02      0.00000000E+00      0.00000000E+00
     102       20.2000     -0.12444848E-02      0.63036080E-05     -0.61909060E-03     -0.10413713E-03     -0.12381812E-02      0.00000000E+00      0.00000000E+00
     104       20.6000     -0.12570377E-02      0.61954478E-05     -0.62542113E-03     -0.10424529E-03     -0.12508423E-02      0.00000000E+00      0.00000000E+00
     106       21.0000     -0.12693752E-02      0.60891435E-05     -0.63164304E-03     -0.10435159E-03     -0.12632861E-02      0.00000000E+00      0.00000000E+00
     108       21.4000     -0.12815010E-02      0.59846632E-05     -0.63775819E-03     -0.10445607E-03     -0.12755164E-02      0.00000000E+00      0.00000000E+00
     110       21.8000     -0.12934188E-02      0.58819756E-05     -0.64376842E-03     -0.10455876E-03     -0.12875368E-02      0.00000000E+00      0.00000000E+00
     112       22.2000     -0.13051321E-02      0.57810499E-05     -0.64967551E-03     -0.10465969E-03     -0.12993510E-02      0.00000000E+00      0.00000000E+00
     114       22.6000     -0.13166444E-02      0.56818560E-05     -0.65548125E-03     -0.10475888E-03     -0.13109625E-02      0.00000000E+00      0.00000000E+00
     116       23.0000     -0.13279591E-02      0.55843641E-05     -0.66118738E-03     -0.10485637E-03     -0.13223748E-02      0.00000000E+00      0.00000000E+00
     118       23.4000     -0.13390797E-02      0.54885450E-05     -0.66679559E-03     -0.10495219E-03     -0.13335912E-02      0.00000000E+00      0.00000000E+00
     120       23.8000     -0.13500095E-02      0.53943701E-05     -0.67230758E-03     -0.10504637E-03     -0.13446152E-02      0.00000000E+00      0.00000000E+00
     122       24.2000     -0.13607518E-02      0.53018110E-05     -0.67772499E-03     -0.10513892E-03     -0.13554500E-02      0.00000000E+00      0.00000000E+00
     124       24.6000     -0.13713097E-02      0.52108401E-05     -0.68304945E-03     -0.10522990E-03     -0.13660989E-02      0.00000000E+00      0.00000000E+00
     126       25.0000     -0.13816865E-02      0.51214301E-05     -0.68828254E-03     -0.10531931E-03     -0.13765651E-02      0.00000000E+00      0.00000000E+00
     128       25.4000     -0.13918852E-02      0.50335542E-05     -0.69342585E-03     -0.10540718E-03     -0.13868517E-02      0.00000000E+00      0.00000000E+00
     130       25.8000     -0.14019090E-02      0.49471862E-05     -0.69848090E-03     -0.10549355E-03     -0.13969618E-02      0.00000000E+00      0.00000000E+00
     132       26.2000     -0.14117607E-02      0.48623001E-05     -0.70344921E-03     -0.10557844E-03     -0.14068984E-02      0.00000000E+00      0.00000000E+00
     134       26.6000     -0.14214434E-02      0.47788705E-05     -0.70833228E-03     -0.10566186E-03     -0.14166646E-02      0.00000000E+00      0.00000000E+00
     136       27.0000     -0.14309600E-02      0.46968725E-05     -0.71313156E-03     -0.10574386E-03     -0.14262631E-02      0.00000000E+00      0.00000000E+00
     138       27.4000     -0.14403133E-02      0.46162814E-05     -0.71784850E-03     -0.10582445E-03     -0.14356970E-02      0.00000000E+00      0.00000000E+00
     140       27.8000     -0.14495061E-02      0.45370731E-05     -0.72248449E-03     -0.10590366E-03     -0.14449690E-02      0.00000000E+00      0.00000000E+00
     142       28.2000     -0.14585411E-02      0.44592239E-05     -0.72704094E-03     -0.10598151E-03     -0.14540819E-02      0.00000000E+00      0.00000000E+00
     144       28.6000     -0.14674211E-02      0.43827105E-05     -0.73151921E-03     -0.10605802E-03     -0.14630384E-02      0.00000000E+00      0.00000000E+00
     146       29.0000     -0.14761488E-02      0.43075099E-05     -0.73592064E-03     -0.10613323E-03     -0.14718413E-02      0.00000000E+00      0.00000000E+00
     148       29.4000     -0.14847267E-02      0.42335997E-05     -0.74024655E-03     -0.10620714E-03     -0.14804931E-02      0.00000000E+00      0.00000000E+00
     150       29.8000     -0.14931574E-02      0.41609576E-05     -0.74449823E-03     -0.10627978E-03     -0.14889965E-02      0.00000000E+00      0.00000000E+00
     152       30.2000     -0.15014435E-02      0.40895620E-05     -0.74867696E-03     -0.10635117E-03     -0.14973539E-02      0.00000000E+00      0.00000000E+00
     154       30.6000     -0.15095874E-02      0.40193914E-05     -0.75278399E-03     -0.10642134E-03     -0.15055680E-02      0.00000000E+00      0.00000000E+00
     156       31.0000     -0.15175915E-02      0.39504249E-05     -0.75682055E-03     -0.10649031E-03     -0.15136411E-02      0.00000000E+00      0.00000000E+00
     158       31.4000     -0.15254583E-02      0.38826417E-05     -0.76078785E-03     -0.10655809E-03     -0.15215757E-02      0.00000000E+00      0.00000000E+00
     160       31.8000     -0.15331902E-02      0.38160215E-05     -0.76468707E-03     -0.10662471E-03     -0.15293741E-02      0.00000000E+00      0.00000000E+00
     162       32.2000     -0.15407893E-02      0.37505445E-05     -0.76851939E-03     -0.10669019E-03     -0.15370388E-02      0.00000000E+00      0.00000000E+00
     164       32.6000     -0.15482581E-02      0.36861909E-05     -0.77228595E-03     -0.10675454E-03     -0.15445719E-02      0.00000000E+00      0.00000000E+00
     166       33.0000     -0.15555987E-02      0.36229415E-05     -0.77598789E-03     -0.10681779E-03     -0.15519758E-02      0.00000000E+00      0.00000000E+00
     168       33.4000     -0.15628134E-02      0.35607774E-05     -0.77962630E-03     -0.10687996E-03     -0.15592526E-02      0.00000000E+00      0.00000000E+00
     170       33.8000     -0.15699043E-02      0.34996800E-05     -0.78320229E-03     -0.10694106E-03     -0.15664046E-02      0.00000000E+00      0.00000000E+00
     172       34.2000     -0.15768735E-02      0.34396309E-05     -0.78671692E-03     -0.10700110E-03     -0.15734338E-02      0.00000000E+00      0.00000000E+00
     174       34.6000     -0.15837231E-02      0.33806121E-05     -0.79017124E-03     -0.10706012E-03     -0.15803425E-02      0.00000000E+00      0.00000000E+00
     176       35.0000     -0.15904552E-02      0.33226060E-05     -0.79356629E-03     -0.10711813E-03     -0.15871326E-02      0.00000000E+00      0.00000000E+00
     178       35.4000     -0.15970718E-02      0.32655952E-05     -0.79690309E-03     -0.10717514E-03     -0.15938062E-02      0.00000000E+00      0.00000000E+00
     180       35.8000     -0.16035748E-02      0.32095626E-05     -0.80018263E-03     -0.10723117E-03     -0.16003653E-02      0.00000000E+00      0.00000000E+00
     182       36.2000     -0.16099663E-02      0.31544915E-05     -0.80340590E-03     -0.10728624E-03     -0.16068118E-02      0.00000000E+00      0.00000000E+00
     184       36.6000     -0.16162481E-02      0.31003653E-05     -0.80657387E-03     -0.10734037E-03     -0.16131477E-02      0.00000000E+00      0.00000000E+00
     186       37.0000     -0.16224221E-02      0.30471678E-05     -0.80968747E-03     -0.10739357E-03     -0.16193749E-02      0.00000000E+00      0.00000000E+00
     188       37.4000     -0.16284902E-02      0.29948831E-05     -0.81274765E-03     -0.10744585E-03     -0.16254953E-02      0.00000000E+00      0.00000000E+00
     190       37.8000     -0.16344542E-02      0.29434955E-05     -0.81575533E-03     -0.10749724E-03     -0.16315107E-02      0.00000000E+00      0.00000000E+00
     192       38.2000     -0.16403158E-02      0.28929896E-05     -0.81871140E-03     -0.10754775E-03     -0.16374228E-02      0.00000000E+00      0.00000000E+00
     194       38.6000     -0.16460768E-02      0.28433504E-05     -0.82161674E-03     -0.10759739E-03     -0.16432335E-02      0.00000000E+00      0.00000000E+00
     196       39.0000     -0.16517390E-02      0.27945629E-05     -0.82447224E-03     -0.10764617E-03     -0.16489445E-02      0.00000000E+00      0.00000000E+00
     198       39.4000     -0.16573041E-02      0.27466125E-05     -0.82727874E-03     -0.10769412E-03     -0.16545575E-02      0.00000000E+00      0.00000000E+00
     200       39.8000     -0.16627736E-02      0.26994848E-05     -0.83003708E-03     -0.10774125E-03     -0.16600742E-02      0.00000000E+00      0.00000000E+00
     202       40.2000     -0.16681494E-02      0.26531658E-05     -0.83274809E-03     -0.10778757E-03     -0.16654962E-02      0.00000000E+00      0.00000000E+00
     204       40.6000     -0.16734328E-02      0.26076416E-05     -0.83541259E-03     -0.10783309E-03     -0.16708252E-02      0.00000000E+00      0.00000000E+00
     206       41.0000     -0.16786256E-02      0.25628985E-05     -0.83803137E-03     -0.10787784E-03     -0.16760627E-02      0.00000000E+00      0.00000000E+00
     208       41.4000     -0.16837294E-02      0.25189231E-05     -0.84060521E-03     -0.10792181E-03     -0.16812104E-02      0.00000000E+00      0.00000000E+00
     210       41.8000     -0.16887455E-02      0.24757023E-05     -0.84313490E-03     -0.10796503E-03     -0.16862698E-02      0.00000000E+00      0.00000000E+00
     212       42.2000     -0.16936756E-02      0.24332230E-05     -0.84562117E-03     -0.10800751E-03     -0.16912423E-02      0.00000000E+00      0.00000000E+00
     214       42.6000     -0.16985210E-02      0.23914727E-05     -0.84806479E-03     -0.10804926E-03     -0.16961296E-02      0.00000000E+00      0.00000000E+00
     216       43.0000     -0.17032834E-02      0.23504387E-05     -0.85046647E-03     -0.10809030E-03     -0.17009329E-02      0.00000000E+00      0.00000000E+00
     218       43.4000     -0.17079640E-02      0.23101088E-05     -0.85282695E-03     -0.10813063E-03     -0.17056539E-02      0.00000000E+00      0.00000000E+00
     220       43.8000     -0.17125643E-02      0.22704709E-05     -0.85514693E-03     -0.10817026E-03     -0.17102939E-02      0.00000000E+00      0.00000000E+00
     222       44.2000     -0.17170857E-02      0.22315131E-05     -0.85742710E-03     -0.10820922E-03     -0.17148542E-02      0.00000000E+00      0.00000000E+00
     224       44.6000     -0.17215295E-02      0.21932238E-05     -0.85966814E-03     -0.10824751E-03     -0.17193363E-02      0.00000000E+00      0.00000000E+00
     226       45.0000     -0.17258971E-02      0.21555914E-05     -0.86187073E-03     -0.10828514E-03     -0.17237415E-02      0.00000000E+00      0.00000000E+00
     228       45.4000     -0.17301897E-02      0.21186048E-05     -0.86403553E-03     -0.10832213E-03     -0.17280711E-02      0.00000000E+00      0.00000000E+00
     230       45.8000     -0.17344086E-02      0.20822528E-05     -0.86616318E-03     -0.10835848E-03     -0.17323264E-02      0.00000000E+00      0.00000000E+00
     232       46.2000     -0.17385552E-02      0.20465245E-05     -0.86825433E-03     -0.10839421E-03     -0.17365087E-02      0.00000000E+00      0.00000000E+00
     234       46.6000     -0.17426306E-02      0.20114093E-05     -0.87030959E-03     -0.10842933E-03     -0.17406192E-02      0.00000000E+00      0.00000000E+00
     236       47.0000     -0.17466361E-02      0.19768966E-05     -0.87232959E-03     -0.10846384E-03     -0.17446592E-02      0.00000000E+00      0.00000000E+00
     238       47.4000     -0.17505728E-02      0.19429761E-05     -0.87431493E-03     -0.10849776E-03     -0.17486299E-02      0.00000000E+00      0.00000000E+00
     240       47.8000     -0.17544421E-02      0.19096377E-05     -0.87626621E-03     -0.10853110E-03     -0.17525324E-02      0.00000000E+00      0.00000000E+00
     242       48.2000     -0.17582449E-02      0.18768712E-05     -0.87818400E-03     -0.10856386E-03     -0.17563680E-02      0.00000000E+00      0.00000000E+00
