#   istep time (au) dipole-x  dipole-y  dipole-z 
       1        0.0000     -0.3710180000E+01      0.1034640000E-03      0.1278550000E-03
       2        0.2000     -0.3710180000E+01      0.1034640000E-03      0.1278550000E-03
       4        0.6000     -0.3710180000E+01      0.1034640016E-03      0.1278550000E-03
       6        1.0000     -0.3710180000E+01      0.1034640111E-03      0.1278550000E-03
       8        1.4000     -0.3710180000E+01      0.1034640408E-03      0.1278550000E-03
      10        1.8000     -0.3710180000E+01      0.1034641091E-03      0.1278550000E-03
      12        2.2000     -0.3710180000E+01      0.1034642390E-03      0.1278550000E-03
      14        2.6000     -0.3710180000E+01      0.1034644586E-03      0.1278550000E-03
      16        3.0000     -0.3710180000E+01      0.1034647990E-03      0.1278550000E-03
      18        3.4000     -0.3710180000E+01      0.1034652942E-03      0.1278549999E-03
      20        3.8000     -0.3710180000E+01      0.1034659795E-03      0.1278549999E-03
      22        4.2000     -0.3710180000E+01      0.1034668905E-03      0.1278549998E-03
      24        4.6000     -0.3710180000E+01      0.1034680618E-03      0.1278549997E-03
      26        5.0000     -0.3710180000E+01      0.1034695255E-03      0.1278549995E-03
      28        5.4000     -0.3710180000E+01      0.1034713101E-03      0.1278549993E-03
      30        5.8000     -0.3710180000E+01      0.1034734391E-03      0.1278549990E-03
      32        6.2000     -0.3710180000E+01      0.1034759298E-03      0.1278549985E-03
      34        6.6000     -0.3710180000E+01      0.1034787922E-03      0.1278549979E-03
      36        7.0000     -0.3710180000E+01      0.1034820277E-03      0.1278549971E-03
      38        7.4000     -0.3710180000E+01      0.1034856285E-03      0.1278549962E-03
      40        7.8000     -0.3710180000E+01      0.1034895766E-03      0.1278549950E-03
      42        8.2000     -0.3710180000E+01      0.1034938435E-03      0.1278549935E-03
      44        8.6000     -0.3710180000E+01      0.1034983896E-03      0.1278549917E-03
      46        9.0000     -0.3710180000E+01      0.1035031641E-03      0.1278549896E-03
      48        9.4000     -0.3710180000E+01      0.1035081050E-03      0.1278549872E-03
      50        9.8000     -0.3710180000E+01      0.1035131398E-03      0.1278549844E-03
      52       10.2000     -0.3710180000E+01      0.1035181856E-03      0.1278549812E-03
      54       10.6000     -0.3710180000E+01      0.1035231503E-03      0.1278549777E-03
      56       11.0000     -0.3710180000E+01      0.1035279332E-03      0.1278549737E-03
      58       11.4000     -0.3710180000E+01      0.1035324268E-03      0.1278549695E-03
      60       11.8000     -0.3710180000E+01      0.1035365178E-03      0.1278549649E-03
      62       12.2000     -0.3710180000E+01      0.1035400894E-03      0.1278549601E-03
      64       12.6000     -0.3710180000E+01      0.1035430223E-03      0.1278549551E-03
      66       13.0000     -0.3710180000E+01      0.1035451976E-03      0.1278549500E-03
      68       13.4000     -0.3710180000E+01      0.1035464983E-03      0.1278549448E-03
      70       13.8000     -0.3710180000E+01      0.1035468120E-03      0.1278549398E-03
      72       14.2000     -0.3710180000E+01      0.1035460326E-03      0.1278549351E-03
      74       14.6000     -0.3710180000E+01      0.1035440632E-03      0.1278549308E-03
      76       15.0000     -0.3710180000E+01      0.1035408180E-03      0.1278549271E-03
      78       15.4000     -0.3710180000E+01      0.1035362244E-03      0.1278549241E-03
      80       15.8000     -0.3710180000E+01      0.1035302256E-03      0.1278549221E-03
      82       16.2000     -0.3710180000E+01      0.1035227819E-03      0.1278549213E-03
      84       16.6000     -0.3710180000E+01      0.1035138730E-03      0.1278549219E-03
      86       17.0000     -0.3710180000E+01      0.1035034993E-03      0.1278549242E-03
      88       17.4000     -0.3710180000E+01      0.1034916831E-03      0.1278549283E-03
      90       17.8000     -0.3710180000E+01      0.1034784700E-03      0.1278549344E-03
      92       18.2000     -0.3710180000E+01      0.1034639292E-03      0.1278549428E-03
      94       18.6000     -0.3710180000E+01      0.1034481540E-03      0.1278549536E-03
      96       19.0000     -0.3710180000E+01      0.1034312618E-03      0.1278549671E-03
      98       19.4000     -0.3710180000E+01      0.1034133939E-03      0.1278549832E-03
     100       19.8000     -0.3710180000E+01      0.1033947145E-03      0.1278550023E-03
     102       20.2000     -0.3710180000E+01      0.1033754097E-03      0.1278550242E-03
     104       20.6000     -0.3710180000E+01      0.1033556859E-03      0.1278550490E-03
     106       21.0000     -0.3710180000E+01      0.1033357680E-03      0.1278550767E-03
     108       21.4000     -0.3710180000E+01      0.1033158972E-03      0.1278551072E-03
     110       21.8000     -0.3710180000E+01      0.1032963282E-03      0.1278551403E-03
     112       22.2000     -0.3710180000E+01      0.1032773266E-03      0.1278551758E-03
     114       22.6000     -0.3710180000E+01      0.1032591653E-03      0.1278552135E-03
     116       23.0000     -0.3710180000E+01      0.1032421214E-03      0.1278552530E-03
     118       23.4000     -0.3710180000E+01      0.1032264725E-03      0.1278552938E-03
     120       23.8000     -0.3710180000E+01      0.1032124928E-03      0.1278553354E-03
     122       24.2000     -0.3710180000E+01      0.1032004490E-03      0.1278553774E-03
     124       24.6000     -0.3710180000E+01      0.1031905969E-03      0.1278554191E-03
     126       25.0000     -0.3710180000E+01      0.1031831769E-03      0.1278554597E-03
     128       25.4000     -0.3710180000E+01      0.1031784101E-03      0.1278554986E-03
     130       25.8000     -0.3710180000E+01      0.1031764948E-03      0.1278555350E-03
     132       26.2000     -0.3710180000E+01      0.1031776026E-03      0.1278555679E-03
     134       26.6000     -0.3710180001E+01      0.1031818750E-03      0.1278555967E-03
     136       27.0000     -0.3710180001E+01      0.1031894202E-03      0.1278556202E-03
     138       27.4000     -0.3710180001E+01      0.1032003106E-03      0.1278556378E-03
     140       27.8000     -0.3710180001E+01      0.1032145799E-03      0.1278556485E-03
     142       28.2000     -0.3710180001E+01      0.1032322216E-03      0.1278556513E-03
     144       28.6000     -0.3710180001E+01      0.1032531870E-03      0.1278556456E-03
     146       29.0000     -0.3710180001E+01      0.1032773846E-03      0.1278556304E-03
     148       29.4000     -0.3710180001E+01      0.1033046793E-03      0.1278556052E-03
     150       29.8000     -0.3710180001E+01      0.1033348925E-03      0.1278555692E-03
     152       30.2000     -0.3710180001E+01      0.1033678031E-03      0.1278555219E-03
     154       30.6000     -0.3710180001E+01      0.1034031483E-03      0.1278554630E-03
     156       31.0000     -0.3710180001E+01      0.1034406257E-03      0.1278553921E-03
     158       31.4000     -0.3710180000E+01      0.1034798955E-03      0.1278553092E-03
     160       31.8000     -0.3710180000E+01      0.1035205836E-03      0.1278552141E-03
     162       32.2000     -0.3710180000E+01      0.1035622853E-03      0.1278551073E-03
     164       32.6000     -0.3710180000E+01      0.1036045687E-03      0.1278549889E-03
     166       33.0000     -0.3710180000E+01      0.1036469799E-03      0.1278548597E-03
     168       33.4000     -0.3710180000E+01      0.1036890473E-03      0.1278547204E-03
     170       33.8000     -0.3710180000E+01      0.1037302873E-03      0.1278545720E-03
     172       34.2000     -0.3710180000E+01      0.1037702097E-03      0.1278544157E-03
     174       34.6000     -0.3710180000E+01      0.1038083234E-03      0.1278542529E-03
     176       35.0000     -0.3710180000E+01      0.1038441426E-03      0.1278540852E-03
     178       35.4000     -0.3710180000E+01      0.1038771931E-03      0.1278539143E-03
     180       35.8000     -0.3710179999E+01      0.1039070178E-03      0.1278537422E-03
     182       36.2000     -0.3710179999E+01      0.1039331833E-03      0.1278535711E-03
     184       36.6000     -0.3710179999E+01      0.1039552859E-03      0.1278534031E-03
     186       37.0000     -0.3710179999E+01      0.1039729568E-03      0.1278532409E-03
     188       37.4000     -0.3710179999E+01      0.1039858681E-03      0.1278530867E-03
     190       37.8000     -0.3710179999E+01      0.1039937377E-03      0.1278529432E-03
     192       38.2000     -0.3710179999E+01      0.1039963336E-03      0.1278528130E-03
     194       38.6000     -0.3710179999E+01      0.1039934786E-03      0.1278526988E-03
     196       39.0000     -0.3710179998E+01      0.1039850535E-03      0.1278526032E-03
     198       39.4000     -0.3710179998E+01      0.1039709997E-03      0.1278525286E-03
     200       39.8000     -0.3710179998E+01      0.1039513223E-03      0.1278524777E-03
     202       40.2000     -0.3710179998E+01      0.1039260908E-03      0.1278524526E-03
     204       40.6000     -0.3710179998E+01      0.1038954400E-03      0.1278524555E-03
     206       41.0000     -0.3710179998E+01      0.1038595703E-03      0.1278524884E-03
     208       41.4000     -0.3710179998E+01      0.1038187464E-03      0.1278525529E-03
     210       41.8000     -0.3710179998E+01      0.1037732960E-03      0.1278526505E-03
     212       42.2000     -0.3710179998E+01      0.1037236069E-03      0.1278527821E-03
     214       42.6000     -0.3710179998E+01      0.1036701244E-03      0.1278529485E-03
     216       43.0000     -0.3710179998E+01      0.1036133464E-03      0.1278531500E-03
     218       43.4000     -0.3710179998E+01      0.1035538194E-03      0.1278533865E-03
     220       43.8000     -0.3710179998E+01      0.1034921326E-03      0.1278536574E-03
     222       44.2000     -0.3710179998E+01      0.1034289122E-03      0.1278539618E-03
     224       44.6000     -0.3710179999E+01      0.1033648144E-03      0.1278542981E-03
     226       45.0000     -0.3710179999E+01      0.1033005184E-03      0.1278546643E-03
     228       45.4000     -0.3710179999E+01      0.1032367189E-03      0.1278550581E-03
     230       45.8000     -0.3710179999E+01      0.1031741183E-03      0.1278554765E-03
     232       46.2000     -0.3710179999E+01      0.1031134185E-03      0.1278559160E-03
     234       46.6000     -0.3710180000E+01      0.1030553127E-03      0.1278563728E-03
     236       47.0000     -0.3710180000E+01      0.1030004769E-03      0.1278568426E-03
     238       47.4000     -0.3710180000E+01      0.1029495620E-03      0.1278573207E-03
     240       47.8000     -0.3710180001E+01      0.1029031858E-03      0.1278578020E-03
     242       48.2000     -0.3710180001E+01      0.1028619247E-03      0.1278582812E-03
     244       48.6000     -0.3710180001E+01      0.1028263070E-03      0.1278587525E-03
     246       49.0000     -0.3710180002E+01      0.1027968053E-03      0.1278592101E-03
     248       49.4000     -0.3710180002E+01      0.1027738304E-03      0.1278596480E-03
     250       49.8000     -0.3710180002E+01      0.1027577257E-03      0.1278600600E-03
     252       50.2000     -0.3710180003E+01      0.1027487620E-03      0.1278604399E-03
     254       50.6000     -0.3710180003E+01      0.1027471332E-03      0.1278607817E-03
     256       51.0000     -0.3710180003E+01      0.1027529531E-03      0.1278610793E-03
     258       51.4000     -0.3710180003E+01      0.1027662529E-03      0.1278613271E-03
     260       51.8000     -0.3710180004E+01      0.1027869795E-03      0.1278615194E-03
     262       52.2000     -0.3710180004E+01      0.1028149955E-03      0.1278616513E-03
     264       52.6000     -0.3710180004E+01      0.1028500791E-03      0.1278617180E-03
     266       53.0000     -0.3710180004E+01      0.1028919262E-03      0.1278617154E-03
     268       53.4000     -0.3710180004E+01      0.1029401524E-03      0.1278616400E-03
     270       53.8000     -0.3710180004E+01      0.1029942968E-03      0.1278614888E-03
     272       54.2000     -0.3710180005E+01      0.1030538265E-03      0.1278612598E-03
     274       54.6000     -0.3710180005E+01      0.1031181417E-03      0.1278609516E-03
     276       55.0000     -0.3710180005E+01      0.1031865826E-03      0.1278605637E-03
     278       55.4000     -0.3710180004E+01      0.1032584355E-03      0.1278600965E-03
     280       55.8000     -0.3710180004E+01      0.1033329414E-03      0.1278595514E-03
     282       56.2000     -0.3710180004E+01      0.1034093041E-03      0.1278589306E-03
     284       56.6000     -0.3710180004E+01      0.1034866988E-03      0.1278582374E-03
     286       57.0000     -0.3710180004E+01      0.1035642823E-03      0.1278574761E-03
     288       57.4000     -0.3710180003E+01      0.1036412016E-03      0.1278566517E-03
     290       57.8000     -0.3710180003E+01      0.1037166047E-03      0.1278557706E-03
     292       58.2000     -0.3710180003E+01      0.1037896502E-03      0.1278548397E-03
     294       58.6000     -0.3710180002E+01      0.1038595173E-03      0.1278538670E-03
     296       59.0000     -0.3710180002E+01      0.1039254153E-03      0.1278528613E-03
     298       59.4000     -0.3710180001E+01      0.1039865939E-03      0.1278518322E-03
     300       59.8000     -0.3710180001E+01      0.1040423514E-03      0.1278507897E-03
     302       60.2000     -0.3710180000E+01      0.1040920440E-03      0.1278497448E-03
     304       60.6000     -0.3710179999E+01      0.1041350933E-03      0.1278487087E-03
     306       61.0000     -0.3710179999E+01      0.1041709941E-03      0.1278476931E-03
     308       61.4000     -0.3710179998E+01      0.1041993204E-03      0.1278467099E-03
     310       61.8000     -0.3710179997E+01      0.1042197310E-03      0.1278457711E-03
     312       62.2000     -0.3710179997E+01      0.1042319744E-03      0.1278448888E-03
     314       62.6000     -0.3710179996E+01      0.1042358919E-03      0.1278440749E-03
     316       63.0000     -0.3710179995E+01      0.1042314204E-03      0.1278433410E-03
     318       63.4000     -0.3710179995E+01      0.1042185935E-03      0.1278426984E-03
     320       63.8000     -0.3710179994E+01      0.1041975415E-03      0.1278421576E-03
     322       64.2000     -0.3710179994E+01      0.1041684908E-03      0.1278417286E-03
     324       64.6000     -0.3710179993E+01      0.1041317612E-03      0.1278414205E-03
     326       65.0000     -0.3710179993E+01      0.1040877629E-03      0.1278412414E-03
     328       65.4000     -0.3710179992E+01      0.1040369922E-03      0.1278411982E-03
     330       65.8000     -0.3710179992E+01      0.1039800253E-03      0.1278412967E-03
     332       66.2000     -0.3710179992E+01      0.1039175126E-03      0.1278415413E-03
     334       66.6000     -0.3710179992E+01      0.1038501706E-03      0.1278419350E-03
     336       67.0000     -0.3710179991E+01      0.1037787741E-03      0.1278424793E-03
     338       67.4000     -0.3710179991E+01      0.1037041468E-03      0.1278431739E-03
     340       67.8000     -0.3710179991E+01      0.1036271518E-03      0.1278440170E-03
     342       68.2000     -0.3710179992E+01      0.1035486813E-03      0.1278450053E-03
     344       68.6000     -0.3710179992E+01      0.1034696459E-03      0.1278461334E-03
     346       69.0000     -0.3710179992E+01      0.1033909641E-03      0.1278473945E-03
     348       69.4000     -0.3710179992E+01      0.1033135506E-03      0.1278487799E-03
     350       69.8000     -0.3710179993E+01      0.1032383059E-03      0.1278502794E-03
     352       70.2000     -0.3710179993E+01      0.1031661052E-03      0.1278518813E-03
     354       70.6000     -0.3710179994E+01      0.1030977873E-03      0.1278535720E-03
     356       71.0000     -0.3710179995E+01      0.1030341451E-03      0.1278553368E-03
     358       71.4000     -0.3710179995E+01      0.1029759154E-03      0.1278571596E-03
     360       71.8000     -0.3710179996E+01      0.1029237698E-03      0.1278590233E-03
     362       72.2000     -0.3710179997E+01      0.1028783067E-03      0.1278609095E-03
     364       72.6000     -0.3710179998E+01      0.1028400436E-03      0.1278627991E-03
     366       73.0000     -0.3710179999E+01      0.1028094108E-03      0.1278646724E-03
     368       73.4000     -0.3710180000E+01      0.1027867457E-03      0.1278665092E-03
     370       73.8000     -0.3710180001E+01      0.1027722890E-03      0.1278682890E-03
     372       74.2000     -0.3710180002E+01      0.1027661812E-03      0.1278699912E-03
     374       74.6000     -0.3710180003E+01      0.1027684610E-03      0.1278715956E-03
     376       75.0000     -0.3710180004E+01      0.1027790643E-03      0.1278730823E-03
     378       75.4000     -0.3710180005E+01      0.1027978252E-03      0.1278744320E-03
     380       75.8000     -0.3710180006E+01      0.1028244778E-03      0.1278756263E-03
     382       76.2000     -0.3710180007E+01      0.1028586595E-03      0.1278766479E-03
     384       76.6000     -0.3710180008E+01      0.1028999152E-03      0.1278774810E-03
     386       77.0000     -0.3710180009E+01      0.1029477027E-03      0.1278781110E-03
     388       77.4000     -0.3710180010E+01      0.1030013998E-03      0.1278785254E-03
     390       77.8000     -0.3710180011E+01      0.1030603115E-03      0.1278787133E-03
     392       78.2000     -0.3710180012E+01      0.1031236790E-03      0.1278786662E-03
     394       78.6000     -0.3710180012E+01      0.1031906888E-03      0.1278783776E-03
     396       79.0000     -0.3710180013E+01      0.1032604828E-03      0.1278778436E-03
     398       79.4000     -0.3710180013E+01      0.1033321694E-03      0.1278770625E-03
     400       79.8000     -0.3710180014E+01      0.1034048341E-03      0.1278760355E-03
     402       80.2000     -0.3710180014E+01      0.1034775515E-03      0.1278747664E-03
     404       80.6000     -0.3710180014E+01      0.1035493965E-03      0.1278732613E-03
     406       81.0000     -0.3710180014E+01      0.1036194563E-03      0.1278715295E-03
     408       81.4000     -0.3710180014E+01      0.1036868417E-03      0.1278695826E-03
     410       81.8000     -0.3710180013E+01      0.1037506985E-03      0.1278674349E-03
     412       82.2000     -0.3710180013E+01      0.1038102184E-03      0.1278651031E-03
     414       82.6000     -0.3710180012E+01      0.1038646490E-03      0.1278626065E-03
     416       83.0000     -0.3710180012E+01      0.1039133038E-03      0.1278599663E-03
     418       83.4000     -0.3710180011E+01      0.1039555711E-03      0.1278572062E-03
     420       83.8000     -0.3710180010E+01      0.1039909211E-03      0.1278543515E-03
     422       84.2000     -0.3710180009E+01      0.1040189139E-03      0.1278514291E-03
     424       84.6000     -0.3710180008E+01      0.1040392043E-03      0.1278484674E-03
     426       85.0000     -0.3710180006E+01      0.1040515470E-03      0.1278454958E-03
     428       85.4000     -0.3710180005E+01      0.1040557995E-03      0.1278425449E-03
     430       85.8000     -0.3710180004E+01      0.1040519243E-03      0.1278396453E-03
     432       86.2000     -0.3710180002E+01      0.1040399895E-03      0.1278368282E-03
     434       86.6000     -0.3710180001E+01      0.1040201682E-03      0.1278341245E-03
     436       87.0000     -0.3710179999E+01      0.1039927365E-03      0.1278315648E-03
     438       87.4000     -0.3710179997E+01      0.1039580701E-03      0.1278291786E-03
     440       87.8000     -0.3710179996E+01      0.1039166396E-03      0.1278269948E-03
     442       88.2000     -0.3710179994E+01      0.1038690049E-03      0.1278250402E-03
     444       88.6000     -0.3710179993E+01      0.1038158081E-03      0.1278233405E-03
     446       89.0000     -0.3710179991E+01      0.1037577651E-03      0.1278219187E-03
